Date,Open,High,Low,Close,Volume,Dividends,Stock Splits,SMA50,SMA200
2025-06-20 00:00:00+02:00,34.78384445917382,36.51342711577544,34.687754293800666,35.552547454833984,29534,0.0,0.0,,
2025-06-23 00:00:00+02:00,35.26428170519253,36.22516129571296,34.11122546347507,34.49557876586914,12245,0.0,0.0,,
2025-06-24 00:00:00+02:00,35.16819381713867,35.93690047155054,34.59166749179475,35.16819381713867,6202,0.0,0.0,,
2025-06-25 00:00:00+02:00,35.552545878092445,36.225162344014194,35.168192564575776,36.03298568725586,5780,0.0,0.0,,
2025-06-26 00:00:00+02:00,36.22516410621643,36.22516410621643,34.687754442826076,35.74472427368164,5251,0.0,0.0,,
2025-06-27 00:00:00+02:00,35.74472151943206,35.74472151943206,33.919048830287984,34.68775177001953,13171,0.0,0.0,,
2025-06-30 00:00:00+02:00,34.68775334534321,34.68775334534321,32.95817073603308,34.015140533447266,6825,0.0,0.0,,
2025-07-01 00:00:00+02:00,34.015141160603605,34.97602081298828,33.438611169893804,34.97602081298828,6525,0.0,0.0,,
2025-07-02 00:00:00+02:00,35.16819240552835,36.03298552429742,34.39948944743631,35.8408088684082,4842,0.0,0.0,,
2025-07-03 00:00:00+02:00,36.03298600801308,36.41733932495117,35.16819287763481,36.41733932495117,10672,0.0,0.0,,
2025-07-04 00:00:00+02:00,36.51342706461638,38.62736304881875,36.41734056484287,38.3390998840332,26178,0.0,0.0,,
2025-07-07 00:00:00+02:00,38.72344920881385,41.89435132456186,38.72344920881385,40.74129867553711,27948,0.0,0.0,,
2025-07-08 00:00:00+02:00,40.741296407769525,43.23958189554865,40.5491197551408,43.04740524291992,39866,0.0,0.0,,
2025-07-09 00:00:00+02:00,44.29655105653482,44.77699088866845,43.047408226080385,44.680904388427734,19990,0.0,0.0,,
2025-07-10 00:00:00+02:00,44.77699062195444,47.46745659824904,40.83738548811092,41.31782531738281,60074,0.0,0.0,,
2025-07-11 00:00:00+02:00,41.50999884655175,43.23958136818626,41.50999884655175,42.27870178222656,19874,0.0,0.0,,
2025-07-14 00:00:00+02:00,42.27870493109859,44.296550745715024,42.27870493109859,44.10437774658203,15733,0.0,0.0,,
2025-07-15 00:00:00+02:00,44.10437805605339,45.93004721888217,44.10437805605339,44.680904388427734,21711,0.0,0.0,,
2025-07-16 00:00:00+02:00,44.68090264704945,45.64178227386772,43.62393652373531,44.96916580200195,17510,0.0,0.0,,
2025-07-17 00:00:00+02:00,44.9691672390755,45.065257404107,43.23958458862356,44.10437774658203,8064,0.0,0.0,,
2025-07-18 00:00:00+02:00,44.00828758155053,44.68090407491101,43.335671088190054,44.10437774658203,4304,0.0,0.0,,
2025-07-21 00:00:00+02:00,44.20046243293996,44.20046243293996,41.317823578617784,41.60608673095703,18055,0.0,0.0,,
2025-07-22 00:00:00+02:00,41.894351959228516,42.855231624949035,38.91562646168093,41.894351959228516,32125,0.0,0.0,,
2025-07-23 00:00:00+02:00,41.50999939024698,42.27870233599021,40.356943138899744,40.45302963256836,7693,0.0,0.0,,
2025-07-24 00:00:00+02:00,41.125647858996224,41.221738022275396,38.33909910226914,40.16476821899414,18418,0.0,0.0,,
2025-07-25 00:00:00+02:00,39.97259139082131,40.06868155369884,38.819538760010346,39.780418395996094,5717,0.0,0.0,,
2025-07-28 00:00:00+02:00,39.78041716945454,42.0865260254376,39.78041716945454,40.83738327026367,10188,0.0,0.0,,
2025-07-29 00:00:00+02:00,41.31782467787899,43.143497467041016,40.933471354224366,43.143497467041016,9923,0.0,0.0,,
2025-07-30 00:00:00+02:00,43.04740666534395,43.14349682756582,41.029560909728175,42.37479019165039,4636,0.0,0.0,,
2025-07-31 00:00:00+02:00,42.663057977864995,42.7591444767954,40.45303184781594,40.74129867553711,5714,0.0,0.0,,
2025-08-01 00:00:00+02:00,40.74129661094196,41.70217621341261,40.068680156119534,40.645206451416016,5884,0.0,0.0,,
2025-08-04 00:00:00+02:00,40.64520867106287,41.798264990089365,40.26085900836403,41.125648498535156,6893,0.0,0.0,,
2025-08-05 00:00:00+02:00,40.93347009137891,41.70217671497265,40.74129710094531,41.221736907958984,2896,0.0,0.0,,
2025-08-06 00:00:00+02:00,41.50999989421693,41.89434953902252,40.64520677884092,41.02956008911133,3950,0.0,0.0,,
2025-08-07 00:00:00+02:00,41.02956230517564,41.51000213623047,40.8373856396607,41.51000213623047,4972,0.0,0.0,,
2025-08-08 00:00:00+02:00,42.099998474121094,42.70000076293945,40.599998474121094,41.5,4926,1.69,0.0,,
2025-08-11 00:00:00+02:00,41.0,42.400001525878906,40.400001525878906,40.79999923706055,8033,0.0,0.0,,
2025-08-12 00:00:00+02:00,40.400001525878906,41.099998474121094,40.0,40.0,5376,0.0,0.0,,
2025-08-13 00:00:00+02:00,40.0,40.0,38.400001525878906,39.20000076293945,15211,0.0,0.0,,
2025-08-14 00:00:00+02:00,39.20000076293945,39.20000076293945,37.599998474121094,38.29999923706055,9231,0.0,0.0,,
2025-08-18 00:00:00+02:00,38.29999923706055,38.599998474121094,36.70000076293945,37.20000076293945,25061,0.0,0.0,,
2025-08-19 00:00:00+02:00,37.20000076293945,40.79999923706055,36.5,39.79999923706055,17934,0.0,0.0,,
2025-08-20 00:00:00+02:00,39.900001525878906,42.599998474121094,39.900001525878906,42.400001525878906,14213,0.0,0.0,,
2025-08-21 00:00:00+02:00,42.70000076293945,44.20000076293945,42.70000076293945,43.0,13207,0.0,0.0,,
2025-08-22 00:00:00+02:00,43.0,43.20000076293945,40.29999923706055,42.20000076293945,13080,0.0,0.0,,
2025-08-25 00:00:00+02:00,42.0,42.0,40.599998474121094,41.29999923706055,4533,0.0,0.0,,
2025-08-26 00:00:00+02:00,41.29999923706055,42.79999923706055,41.099998474121094,42.20000076293945,4734,0.0,0.0,,
2025-08-27 00:00:00+02:00,42.900001525878906,42.900001525878906,41.20000076293945,42.29999923706055,2995,0.0,0.0,,
2025-08-28 00:00:00+02:00,42.79999923706055,44.5,42.29999923706055,43.0,21013,0.0,0.0,,
2025-08-29 00:00:00+02:00,43.29999923706055,43.79999923706055,40.599998474121094,41.099998474121094,18635,0.0,0.0,40.32254615783691,
2025-09-01 00:00:00+02:00,41.099998474121094,42.0,39.599998474121094,40.099998474121094,11382,0.0,0.0,40.413495178222654,
2025-09-02 00:00:00+02:00,40.0,40.70000076293945,39.70000076293945,40.70000076293945,3560,0.0,0.0,40.537583618164064,
2025-09-03 00:00:00+02:00,40.70000076293945,42.20000076293945,40.70000076293945,42.0,5412,0.0,0.0,40.67421974182129,
2025-09-04 00:00:00+02:00,43.900001525878906,45.599998474121094,43.0,45.599998474121094,31739,0.0,0.0,40.86555999755859,
2025-09-05 00:00:00+02:00,45.79999923706055,46.599998474121094,44.599998474121094,45.599998474121094,15701,0.0,0.0,41.062665481567386,
2025-09-08 00:00:00+02:00,45.70000076293945,48.900001525878906,45.70000076293945,48.400001525878906,15240,0.0,0.0,41.33691047668457,
2025-09-09 00:00:00+02:00,48.0,48.29999923706055,46.70000076293945,47.0,6753,0.0,0.0,41.59660766601562,
2025-09-10 00:00:00+02:00,46.5,47.900001525878906,45.20000076293945,47.79999923706055,8108,0.0,0.0,41.85308723449707,
2025-09-11 00:00:00+02:00,47.79999923706055,47.79999923706055,46.099998474121094,47.099998474121094,3392,0.0,0.0,42.078271026611326,
2025-09-12 00:00:00+02:00,47.20000076293945,47.70000076293945,46.20000076293945,47.0,3161,0.0,0.0,42.289924240112306,
2025-09-15 00:00:00+02:00,47.0,47.400001525878906,46.20000076293945,46.900001525878906,3754,0.0,0.0,42.46114227294922,
2025-09-16 00:00:00+02:00,46.900001525878906,47.400001525878906,46.5,47.0,3757,0.0,0.0,42.58631629943848,
2025-09-17 00:00:00+02:00,46.5,48.20000076293945,46.5,48.099998474121094,11230,0.0,0.0,42.6873681640625,
2025-09-18 00:00:00+02:00,48.29999923706055,50.599998474121094,48.099998474121094,50.0,14586,0.0,0.0,42.79375007629395,
2025-09-19 00:00:00+02:00,49.900001525878906,51.79999923706055,49.0,50.400001525878906,19399,0.0,0.0,42.97539360046387,
2025-09-22 00:00:00+02:00,51.0,52.599998474121094,50.0,52.599998474121094,10319,0.0,0.0,43.18181953430176,
2025-09-23 00:00:00+02:00,53.0,53.20000076293945,51.400001525878906,52.79999923706055,20025,0.0,0.0,43.35573196411133,
2025-09-24 00:00:00+02:00,52.79999923706055,52.79999923706055,50.599998474121094,52.400001525878906,7894,0.0,0.0,43.510113906860354,
2025-09-25 00:00:00+02:00,52.400001525878906,52.79999923706055,51.599998474121094,52.20000076293945,2886,0.0,0.0,43.6547306060791,
2025-09-26 00:00:00+02:00,52.79999923706055,53.0,51.20000076293945,51.20000076293945,2610,0.0,0.0,43.79664306640625,
2025-09-29 00:00:00+02:00,52.599998474121094,52.599998474121094,48.400001525878906,48.5,17786,0.0,0.0,43.88455551147461,
2025-09-30 00:00:00+02:00,48.599998474121094,49.29999923706055,46.599998474121094,48.0,9139,0.0,0.0,44.01243377685547,
2025-10-01 00:00:00+02:00,47.900001525878906,48.79999923706055,47.20000076293945,48.0,3601,0.0,0.0,44.134546737670895,
2025-10-02 00:00:00+02:00,48.5,50.0,48.20000076293945,50.0,7198,0.0,0.0,44.32548614501953,
2025-10-03 00:00:00+02:00,50.0,50.0,48.0,48.5,6137,0.0,0.0,44.492190780639646,
2025-10-06 00:00:00+02:00,48.20000076293945,48.29999923706055,46.599998474121094,47.29999923706055,8310,0.0,0.0,44.642582397460934,
2025-10-07 00:00:00+02:00,47.599998474121094,48.0,46.599998474121094,47.0,3059,0.0,0.0,44.765834732055666,
2025-10-08 00:00:00+02:00,47.400001525878906,47.400001525878906,45.79999923706055,46.400001525878906,6907,0.0,0.0,44.83096481323242,
2025-10-09 00:00:00+02:00,46.20000076293945,46.79999923706055,44.5,45.79999923706055,7754,0.0,0.0,44.899468994140626,
2025-10-10 00:00:00+02:00,46.70000076293945,48.599998474121094,46.70000076293945,48.5,28573,0.0,0.0,45.05464302062988,
2025-10-13 00:00:00+02:00,48.0,50.599998474121094,47.5,50.0,9769,0.0,0.0,45.241738891601564,
2025-10-14 00:00:00+02:00,50.79999923706055,51.0,46.0,47.599998474121094,17550,0.0,0.0,45.37122589111328,
2025-10-15 00:00:00+02:00,48.400001525878906,51.20000076293945,48.400001525878906,50.599998474121094,14963,0.0,0.0,45.558791122436524,
2025-10-16 00:00:00+02:00,50.599998474121094,50.599998474121094,47.79999923706055,48.099998474121094,10363,0.0,0.0,45.700199890136716,
2025-10-17 00:00:00+02:00,48.599998474121094,49.400001525878906,48.20000076293945,49.0,7319,0.0,0.0,45.84999984741211,
2025-10-20 00:00:00+02:00,49.400001525878906,50.20000076293945,49.400001525878906,50.0,13972,0.0,0.0,46.01999984741211,
2025-10-21 00:00:00+02:00,50.0,50.79999923706055,50.0,50.599998474121094,5561,0.0,0.0,46.21599983215332,
2025-10-22 00:00:00+02:00,50.599998474121094,50.599998474121094,49.599998474121094,50.0,1431,0.0,0.0,46.41599983215332,
2025-10-23 00:00:00+02:00,50.0,50.0,49.20000076293945,49.599998474121094,2858,0.0,0.0,46.623999786376956,
2025-10-24 00:00:00+02:00,49.5,49.900001525878906,49.099998474121094,49.70000076293945,2064,0.0,0.0,46.85199981689453,
2025-10-27 00:00:00+01:00,49.70000076293945,50.0,48.29999923706055,49.099998474121094,4509,0.0,0.0,47.089999771118165,
2025-10-28 00:00:00+01:00,49.29999923706055,49.79999923706055,48.29999923706055,48.29999923706055,6810,0.0,0.0,47.25999977111817,
2025-10-29 00:00:00+01:00,48.29999923706055,49.20000076293945,48.0,48.79999923706055,7664,0.0,0.0,47.3879997253418,
2025-10-30 00:00:00+01:00,48.20000076293945,48.900001525878906,48.0,48.599998474121094,2729,0.0,0.0,47.49999969482422,
2025-10-31 00:00:00+01:00,50.599998474121094,51.599998474121094,49.599998474121094,51.0,12153,0.0,0.0,47.67599967956543,
2025-11-03 00:00:00+01:00,51.0,52.400001525878906,51.0,52.400001525878906,13722,0.0,0.0,47.8979997253418,
2025-11-04 00:00:00+01:00,52.400001525878906,52.400001525878906,51.0,51.20000076293945,3388,0.0,0.0,48.0779997253418,
2025-11-05 00:00:00+01:00,51.20000076293945,51.20000076293945,50.400001525878906,51.0,1240,0.0,0.0,48.25199974060059,
2025-11-06 00:00:00+01:00,51.0,51.0,48.5,48.599998474121094,6708,0.0,0.0,48.36399971008301,
2025-11-07 00:00:00+01:00,48.5,49.5,48.29999923706055,49.0,3452,0.0,0.0,48.521999740600585,
2025-11-10 00:00:00+01:00,49.0,50.0,48.70000076293945,50.0,2788,0.0,0.0,48.71999977111816,
2025-11-12 00:00:00+01:00,50.0,50.0,49.099998474121094,49.70000076293945,1577,0.0,0.0,48.89999977111816,
2025-11-13 00:00:00+01:00,49.5,49.70000076293945,49.0,49.29999923706055,1442,0.0,0.0,49.04599975585938,
2025-11-14 00:00:00+01:00,49.099998474121094,49.099998474121094,48.400001525878906,48.79999923706055,2873,0.0,0.0,49.10999977111816,
2025-11-17 00:00:00+01:00,48.79999923706055,48.79999923706055,47.5,48.29999923706055,3659,0.0,0.0,49.163999786376955,
2025-11-18 00:00:00+01:00,47.900001525878906,47.900001525878906,46.0,46.0,7360,0.0,0.0,49.11599975585938,
2025-11-19 00:00:00+01:00,46.0,47.5,46.0,46.79999923706055,4281,0.0,0.0,49.11199974060059,
2025-11-20 00:00:00+01:00,47.599998474121094,49.900001525878906,47.5,49.5,8167,0.0,0.0,49.14599975585938,
2025-11-21 00:00:00+01:00,49.0,49.5,45.400001525878906,46.900001525878906,10788,0.0,0.0,49.14199981689453,
2025-11-24 00:00:00+01:00,46.900001525878906,47.0,45.0,45.099998474121094,13833,0.0,0.0,49.10399978637695,
2025-11-25 00:00:00+01:00,45.400001525878906,47.79999923706055,45.400001525878906,46.900001525878906,6333,0.0,0.0,49.10399978637695,
2025-11-26 00:00:00+01:00,46.5,48.79999923706055,46.5,48.79999923706055,8568,0.0,0.0,49.13999977111816,
2025-11-27 00:00:00+01:00,48.79999923706055,49.400001525878906,48.099998474121094,49.0,4394,0.0,0.0,49.15799980163574,
2025-11-28 00:00:00+01:00,48.5,49.79999923706055,48.5,49.20000076293945,3174,0.0,0.0,49.14199981689453,
2025-12-01 00:00:00+01:00,50.20000076293945,52.400001525878906,50.20000076293945,52.0,22783,0.0,0.0,49.17399978637695,
2025-12-02 00:00:00+01:00,52.400001525878906,54.0,49.70000076293945,51.0,40860,0.0,0.0,49.14199981689453,
2025-12-03 00:00:00+01:00,51.599998474121094,51.79999923706055,50.400001525878906,51.599998474121094,8167,0.0,0.0,49.11799980163574,
2025-12-04 00:00:00+01:00,51.599998474121094,52.20000076293945,49.20000076293945,50.20000076293945,15529,0.0,0.0,49.07399978637695,
2025-12-05 00:00:00+01:00,50.599998474121094,51.0,49.20000076293945,50.79999923706055,2719,0.0,0.0,49.04599975585938,
2025-12-08 00:00:00+01:00,51.0,51.599998474121094,50.20000076293945,51.0,5527,0.0,0.0,49.04199974060059,
2025-12-09 00:00:00+01:00,51.0,51.79999923706055,50.79999923706055,51.0,3634,0.0,0.0,49.091999740600585,
2025-12-10 00:00:00+01:00,50.79999923706055,51.599998474121094,49.5,50.0,6243,0.0,0.0,49.131999740600584,
2025-12-11 00:00:00+01:00,50.599998474121094,50.79999923706055,49.099998474121094,50.79999923706055,6062,0.0,0.0,49.1879997253418,
2025-12-12 00:00:00+01:00,50.79999923706055,51.0,50.20000076293945,51.0,5333,0.0,0.0,49.2079997253418,
2025-12-15 00:00:00+01:00,51.400001525878906,54.0,51.20000076293945,54.0,16092,0.0,0.0,49.3179997253418,
2025-12-16 00:00:00+01:00,54.599998474121094,58.20000076293945,54.20000076293945,57.0,16552,0.0,0.0,49.51199974060059,
2025-12-17 00:00:00+01:00,57.0,57.0,55.400001525878906,56.0,8629,0.0,0.0,49.691999740600586,
2025-12-18 00:00:00+01:00,56.0,56.79999923706055,55.79999923706055,56.0,6413,0.0,0.0,49.88399971008301,
2025-12-19 00:00:00+01:00,56.20000076293945,56.599998474121094,55.400001525878906,55.79999923706055,3431,0.0,0.0,50.083999710083006,
2025-12-22 00:00:00+01:00,56.79999923706055,57.20000076293945,56.20000076293945,57.20000076293945,7868,0.0,0.0,50.2579997253418,
2025-12-23 00:00:00+01:00,57.79999923706055,61.599998474121094,57.599998474121094,60.79999923706055,14668,0.0,0.0,50.47399971008301,
2025-12-29 00:00:00+01:00,61.0,62.0,60.0,61.0,10035,0.0,0.0,50.74199974060058,
2025-12-30 00:00:00+01:00,61.20000076293945,61.599998474121094,58.599998474121094,59.599998474121094,7961,0.0,0.0,50.92199974060058,
2026-01-02 00:00:00+01:00,59.599998474121094,59.79999923706055,57.0,59.20000076293945,15290,0.0,0.0,51.14399978637695,
2026-01-05 00:00:00+01:00,59.599998474121094,61.79999923706055,58.20000076293945,61.400001525878906,16282,0.0,0.0,51.39199981689453,
2026-01-07 00:00:00+01:00,61.599998474121094,65.0,61.599998474121094,62.400001525878906,33997,0.0,0.0,51.639999847412106,
2026-01-08 00:00:00+01:00,62.599998474121094,63.20000076293945,61.0,62.0,11131,0.0,0.0,51.86799987792969,
2026-01-09 00:00:00+01:00,62.0,62.0,59.400001525878906,61.0,22663,0.0,0.0,52.08799987792969,
2026-01-12 00:00:00+01:00,60.400001525878906,61.0,55.400001525878906,59.400001525878906,25051,0.0,0.0,52.28399993896485,
2026-01-13 00:00:00+01:00,59.400001525878906,59.79999923706055,58.400001525878906,59.0,7600,0.0,0.0,52.469999923706055,
2026-01-14 00:00:00+01:00,58.400001525878906,58.79999923706055,56.400001525878906,57.0,17678,0.0,0.0,52.62799995422363,
2026-01-15 00:00:00+01:00,57.20000076293945,57.20000076293945,56.599998474121094,57.0,8139,0.0,0.0,52.801999969482424,
2026-01-16 00:00:00+01:00,57.0,57.0,55.79999923706055,56.20000076293945,11865,0.0,0.0,52.95,
2026-01-19 00:00:00+01:00,56.20000076293945,56.599998474121094,54.599998474121094,55.0,11462,0.0,0.0,53.07800003051758,
2026-01-20 00:00:00+01:00,55.0,55.20000076293945,54.0,55.0,7393,0.0,0.0,53.15800003051758,
2026-01-21 00:00:00+01:00,55.0,58.0,55.0,57.400001525878906,19724,0.0,0.0,53.25800003051758,
2026-01-22 00:00:00+01:00,57.79999923706055,59.0,57.79999923706055,58.599998474121094,22608,0.0,0.0,53.405999984741214,
2026-01-23 00:00:00+01:00,59.79999923706055,60.0,56.599998474121094,57.599998474121094,11926,0.0,0.0,53.537999954223636,
2026-01-26 00:00:00+01:00,57.599998474121094,58.20000076293945,56.599998474121094,57.20000076293945,6741,0.0,0.0,53.71,
2026-01-27 00:00:00+01:00,57.20000076293945,57.20000076293945,55.0,55.79999923706055,11962,0.0,0.0,53.84599998474121,
2026-01-28 00:00:00+01:00,55.79999923706055,58.400001525878906,55.400001525878906,57.0,7535,0.0,0.0,53.98599998474121,
2026-01-29 00:00:00+01:00,56.0,59.20000076293945,55.79999923706055,57.79999923706055,13771,0.0,0.0,54.147999954223636,
2026-01-30 00:00:00+01:00,57.79999923706055,59.0,56.599998474121094,57.79999923706055,6474,0.0,0.0,54.31799995422363,
2026-02-02 00:00:00+01:00,57.400001525878906,57.400001525878906,53.0,57.20000076293945,24683,0.0,0.0,54.48599998474121,
2026-02-03 00:00:00+01:00,58.0,60.0,57.400001525878906,59.599998474121094,10867,0.0,0.0,54.71199996948242,
2026-02-04 00:00:00+01:00,60.0,61.79999923706055,59.400001525878906,61.0,12096,0.0,0.0,55.011999969482424,
2026-02-05 00:00:00+01:00,60.79999923706055,62.0,56.79999923706055,58.0,9606,0.0,0.0,55.23599998474121,
2026-02-06 00:00:00+01:00,60.400001525878906,61.400001525878906,58.599998474121094,61.400001525878906,13940,0.0,0.0,55.47400001525879,
2026-02-09 00:00:00+01:00,61.400001525878906,62.79999923706055,59.20000076293945,60.0,17267,0.0,0.0,55.73599998474121,
2026-02-10 00:00:00+01:00,58.400001525878906,59.79999923706055,57.79999923706055,57.79999923706055,18455,0.0,0.0,55.99,
2026-02-11 00:00:00+01:00,58.0,59.79999923706055,57.400001525878906,59.0,3798,0.0,0.0,56.23199996948242,
2026-02-12 00:00:00+01:00,59.599998474121094,60.400001525878906,59.0,60.0,2942,0.0,0.0,56.45599998474121,
2026-02-13 00:00:00+01:00,59.0,59.0,57.0,58.79999923706055,9773,0.0,0.0,56.651999969482425,
2026-02-16 00:00:00+01:00,59.0,60.20000076293945,57.79999923706055,58.0,2441,0.0,0.0,56.827999954223635,
2026-02-17 00:00:00+01:00,59.599998474121094,59.599998474121094,57.599998474121094,58.400001525878906,2082,0.0,0.0,56.95599998474121,
2026-02-18 00:00:00+01:00,58.400001525878906,59.400001525878906,57.79999923706055,58.0,3575,0.0,0.0,57.09599998474121,
2026-02-19 00:00:00+01:00,58.0,59.0,56.0,56.400001525878906,9756,0.0,0.0,57.19200004577637,
2026-02-20 00:00:00+01:00,56.599998474121094,58.0,56.599998474121094,57.0,2846,0.0,0.0,57.32800003051758,
2026-02-23 00:00:00+01:00,57.0,59.400001525878906,55.79999923706055,56.599998474121094,5383,0.0,0.0,57.44400001525879,
2026-02-24 00:00:00+01:00,56.79999923706055,57.599998474121094,55.0,55.79999923706055,7531,0.0,0.0,57.54,
2026-02-25 00:00:00+01:00,55.599998474121094,56.0,54.0,55.0,6874,0.0,0.0,57.62,
2026-02-26 00:00:00+01:00,55.20000076293945,55.599998474121094,54.599998474121094,54.599998474121094,6320,0.0,0.0,57.71199996948242,
2026-02-27 00:00:00+01:00,54.400001525878906,54.400001525878906,53.400001525878906,54.400001525878906,7651,0.0,0.0,57.78400001525879,
2026-03-02 00:00:00+01:00,53.400001525878906,54.0,50.20000076293945,53.79999923706055,18861,0.0,0.0,57.84,
2026-03-03 00:00:00+01:00,54.0,55.0,50.400001525878906,50.400001525878906,15327,0.0,0.0,57.76800003051758,
2026-03-04 00:00:00+01:00,50.400001525878906,55.20000076293945,50.400001525878906,54.79999923706055,9285,0.0,0.0,57.72400001525879,
2026-03-05 00:00:00+01:00,54.0,57.0,53.400001525878906,54.599998474121094,7491,0.0,0.0,57.69599998474121,
2026-03-06 00:00:00+01:00,54.0,54.400001525878906,51.599998474121094,52.0,8424,0.0,0.0,57.61599998474121,
2026-03-09 00:00:00+01:00,51.0,51.79999923706055,50.0,51.20000076293945,18908,0.0,0.0,57.52400001525879,
2026-03-10 00:00:00+01:00,51.79999923706055,54.400001525878906,51.0,52.20000076293945,10816,0.0,0.0,57.42400001525879,
2026-03-11 00:00:00+01:00,52.0,52.0,49.29999923706055,50.0,12386,0.0,0.0,57.20800003051758,
2026-03-12 00:00:00+01:00,50.20000076293945,50.400001525878906,49.29999923706055,49.400001525878906,6366,0.0,0.0,56.97600006103516,
2026-03-13 00:00:00+01:00,49.20000076293945,49.20000076293945,47.29999923706055,48.099998474121094,10944,0.0,0.0,56.746000061035154,
2026-03-16 00:00:00+01:00,47.599998474121094,48.0,44.5,46.29999923706055,30753,0.0,0.0,56.488000030517576,
2026-03-17 00:00:00+01:00,46.29999923706055,48.400001525878906,46.0,47.400001525878906,30306,0.0,0.0,56.20800003051758,
2026-03-18 00:00:00+01:00,48.0,48.70000076293945,46.5,46.5,12050,0.0,0.0,55.89,
2026-03-19 00:00:00+01:00,46.0,46.20000076293945,44.099998474121094,46.0,9814,0.0,0.0,55.57,
2026-03-20 00:00:00+01:00,46.0,48.0,45.099998474121094,46.400001525878906,7144,0.0,0.0,55.278000030517575,
2026-03-23 00:00:00+01:00,45.0,46.79999923706055,43.0,46.0,34307,0.0,0.0,55.01,
2026-03-24 00:00:00+01:00,45.900001525878906,46.400001525878906,45.0,45.900001525878906,3701,0.0,0.0,54.74800003051758,
2026-03-25 00:00:00+01:00,48.70000076293945,50.79999923706055,48.20000076293945,49.400001525878906,22302,0.0,0.0,54.596000061035156,
2026-03-26 00:00:00+01:00,50.599998474121094,50.79999923706055,48.0,49.599998474121094,7198,0.0,0.0,54.448000030517576,
2026-03-27 00:00:00+01:00,49.900001525878906,50.0,48.599998474121094,49.70000076293945,5016,0.0,0.0,54.31800003051758,
2026-03-30 00:00:00+02:00,49.0,49.0,46.5,47.79999923706055,12043,0.0,0.0,54.17400001525879,
2026-03-31 00:00:00+02:00,47.70000076293945,48.900001525878906,47.099998474121094,48.70000076293945,3001,0.0,0.0,54.04800003051758,
2026-04-01 00:00:00+02:00,48.599998474121094,50.599998474121094,48.5,49.400001525878906,12100,0.0,0.0,53.88800003051758,
2026-04-02 00:00:00+02:00,48.0,49.400001525878906,48.0,49.400001525878906,5736,0.0,0.0,53.704000091552736,
2026-04-07 00:00:00+02:00,49.29999923706055,49.900001525878906,47.29999923706055,48.54999923706055,8844,0.0,0.0,53.52300010681152,
2026-04-08 00:00:00+02:00,49.54999923706055,52.0,48.54999923706055,49.75,18412,0.0,0.0,53.37400009155274,
2026-04-09 00:00:00+02:00,49.20000076293945,50.0,48.95000076293945,49.150001525878906,5176,0.0,0.0,53.2410001373291,48.982886505126956
2026-04-10 00:00:00+02:00,52.0,53.70000076293945,52.0,53.0,50179,0.0,0.0,53.161000137329104,49.070123767852785
2026-04-13 00:00:00+02:00,52.900001525878906,56.900001525878906,52.599998474121094,56.70000076293945,37668,0.0,0.0,53.13900016784668,49.181145877838134
2026-04-14 00:00:00+02:00,57.20000076293945,59.900001525878906,56.20000076293945,58.79999923706055,52147,0.0,0.0,53.15900016784668,49.29930490493774
2026-04-15 00:00:00+02:00,59.0,59.79999923706055,58.29999923706055,58.400001525878906,13918,0.0,0.0,53.18300018310547,49.41113998413086
2026-04-16 00:00:00+02:00,58.400001525878906,59.20000076293945,56.599998474121094,57.099998474121094,20973,0.0,0.0,53.133000183105466,49.51791635513305
2026-04-17 00:00:00+02:00,57.20000076293945,61.0,57.20000076293945,58.79999923706055,36344,0.0,0.0,53.08900016784668,49.63847759246826
2026-04-20 00:00:00+02:00,59.0,62.20000076293945,58.79999923706055,62.0,25263,0.0,0.0,53.16900016784668,49.778401889801025
2026-04-21 00:00:00+02:00,63.0,65.0,62.5,65.0,40483,0.0,0.0,53.2410001373291,49.92852178573608
2026-04-22 00:00:00+02:00,64.9000015258789,66.0,63.5,63.900001525878906,20770,0.0,0.0,53.31900016784668,50.06881774902344
2026-04-23 00:00:00+02:00,63.900001525878906,64.0,60.5,63.400001525878906,17951,0.0,0.0,53.431000213623044,50.203731060028076
2026-04-24 00:00:00+02:00,63.400001525878906,63.5,61.599998474121094,62.400001525878906,9694,0.0,0.0,53.499000244140625,50.324035568237306
2026-04-27 00:00:00+02:00,62.400001525878906,65.19999694824219,62.400001525878906,64.80000305175781,13995,0.0,0.0,53.59500030517578,50.44432909011841
2026-04-28 00:00:00+02:00,64.80000305175781,65.0,62.29999923706055,62.400001525878906,9085,0.0,0.0,53.66700035095215,50.5410920715332
2026-04-29 00:00:00+02:00,62.400001525878906,62.5,59.0,59.70000076293945,14643,0.0,0.0,53.701000366210934,50.61618755340576
2026-04-30 00:00:00+02:00,59.70000076293945,62.0,58.5,62.0,23449,0.0,0.0,53.77300033569336,50.71959842681885
2026-05-04 00:00:00+02:00,62.5,64.5999984741211,62.099998474121094,64.0,13949,0.0,0.0,53.89300033569336,50.82820491790771
2026-05-05 00:00:00+02:00,64.5999984741211,64.5999984741211,63.79999923706055,64.5999984741211,12819,0.0,0.0,54.0570002746582,50.93068302154541
2026-05-06 00:00:00+02:00,64.9000015258789,67.80000305175781,64.19999694824219,66.0,34293,0.0,0.0,54.2370002746582,51.037278499603275
2026-05-07 00:00:00+02:00,66.30000305175781,67.0,66.0,66.80000305175781,9556,0.0,0.0,54.441000366210936,51.14643268585205
2026-05-08 00:00:00+02:00,67.0,67.0,63.599998474121094,65.30000305175781,11080,0.0,0.0,54.631000442504885,51.25241081237793
2026-05-11 00:00:00+02:00,65.30000305175781,65.30000305175781,62.70000076293945,63.79999923706055,10430,0.0,0.0,54.807000427246095,51.350888919830325
2026-05-12 00:00:00+02:00,63.900001525878906,63.900001525878906,60.0,60.0,23677,0.0,0.0,54.915000457763675,51.44285848617554
2026-05-13 00:00:00+02:00,60.29999923706055,61.79999923706055,59.400001525878906,59.70000076293945,11758,0.0,0.0,55.021000442504885,51.53188673019409
2026-05-14 00:00:00+02:00,60.0,62.599998474121094,60.0,62.599998474121094,13530,0.0,0.0,55.197000427246095,51.64262157440186
2026-05-15 00:00:00+02:00,62.79999923706055,65.5,60.0,63.900001525878906,14605,0.0,0.0,55.46700042724609,51.76129774093628
2026-05-18 00:00:00+02:00,64.0,65.0,62.0,63.29999923706055,10423,0.0,0.0,55.63700042724609,51.878895645141604
2026-05-19 00:00:00+02:00,63.20000076293945,66.0,62.0,63.70000076293945,20862,0.0,0.0,55.81900047302246,51.993208732604984
2026-05-20 00:00:00+02:00,64.4000015258789,64.69999694824219,58.70000076293945,60.099998474121094,56924,0.0,0.0,55.981000442504886,52.07799123764038
2026-05-21 00:00:00+02:00,60.20000076293945,61.5,60.20000076293945,61.0,9223,0.0,0.0,56.17700042724609,52.171117286682126
2026-05-22 00:00:00+02:00,61.0,61.0,57.20000076293945,58.5,32432,0.0,0.0,56.303000411987306,52.25991079330444
2026-05-25 00:00:00+02:00,58.5,58.70000076293945,56.70000076293945,57.599998474121094,17822,0.0,0.0,56.45500038146972,52.344684753417965
2026-05-26 00:00:00+02:00,57.70000076293945,59.599998474121094,57.70000076293945,59.29999923706055,8238,0.0,0.0,56.653000335693356,52.4355565071106
2026-05-27 00:00:00+02:00,59.29999923706055,59.599998474121094,57.0,57.599998474121094,9504,0.0,0.0,56.84300033569336,52.517447814941406
2026-05-28 00:00:00+02:00,57.5,58.0,57.099998474121094,57.70000076293945,4353,0.0,0.0,57.07100036621094,52.600800018310544
2026-05-29 00:00:00+02:00,57.70000076293945,59.0,57.5,58.400001525878906,4707,0.0,0.0,57.29100036621094,52.68525001525879
2026-06-01 00:00:00+02:00,57.79999923706055,58.400001525878906,57.599998474121094,57.70000076293945,10514,0.0,0.0,57.515000381469726,52.76625001907349
2026-06-02 00:00:00+02:00,57.900001525878906,59.20000076293945,57.70000076293945,58.099998474121094,8273,0.0,0.0,57.75700035095215,52.85275001525879
2026-06-03 00:00:00+02:00,58.099998474121094,58.900001525878906,58.0,58.0,11676,0.0,0.0,57.98900032043457,52.94275001525879
2026-06-05 00:00:00+02:00,58.0,58.79999923706055,58.0,58.0,4524,0.0,0.0,58.22900032043457,53.03675001144409
2026-06-08 00:00:00+02:00,58.0,58.20000076293945,57.5,58.0,5353,0.0,0.0,58.471000289916994,53.13525001525879
2026-06-09 00:00:00+02:00,58.0,59.599998474121094,57.0,57.5,6925,0.0,0.0,58.63300025939942,53.236750011444094
2026-06-10 00:00:00+02:00,57.79999923706055,57.79999923706055,56.20000076293945,56.400001525878906,3980,0.0,0.0,58.76900032043457,53.319750022888186
2026-06-11 00:00:00+02:00,56.0,56.400001525878906,55.79999923706055,55.79999923706055,10478,0.0,0.0,58.891000289916995,53.38675001144409
2026-06-12 00:00:00+02:00,55.79999923706055,57.0,55.79999923706055,56.400001525878906,7131,0.0,0.0,59.06300033569336,53.45375001907349
2026-06-15 00:00:00+02:00,56.400001525878906,58.5,56.29999923706055,57.5,5140,0.0,0.0,59.23900032043457,53.53025001525879
2026-06-16 00:00:00+02:00,57.79999923706055,59.599998474121094,57.29999923706055,57.900001525878906,6924,0.0,0.0,59.40900032043457,53.61325002670288
2026-06-17 00:00:00+02:00,58.20000076293945,58.20000076293945,56.0,56.599998474121094,7595,0.0,0.0,59.55300025939941,53.68525001525879
2026-06-18 00:00:00+02:00,56.5,56.5,55.0,55.400001525878906,10587,0.0,0.0,59.69000030517578,53.75075002670288
2026-06-19 00:00:00+02:00,55.29999923706055,56.400001525878906,52.599998474121094,55.20000076293945,17774,0.0,0.0,59.79900032043457,53.81175003051758
